N, nbOp, u_nbOP, tExec (ms), u_tExec (ms)
10, 430, 56, 0.001, 0.001
11, 524, 64, 0.001, 0.000
12, 627, 73, 0.001, 0.000
13, 729, 82, 0.001, 0.001
14, 854, 94, 0.001, 0.001
15, 980, 102, 0.001, 0.001
16, 1124, 112, 0.001, 0.001
17, 1264, 128, 0.001, 0.001
18, 1418, 134, 0.002, 0.000
19, 1583, 143, 0.002, 0.001
20, 1749, 154, 0.002, 0.001
21, 1940, 164, 0.001, 0.001
22, 2122, 177, 0.001, 0.000
23, 2333, 187, 0.001, 0.000
24, 2534, 202, 0.002, 0.001
25, 2757, 208, 0.002, 0.003
26, 2982, 221, 0.002, 0.000
27, 3207, 229, 0.002, 0.001
28, 3465, 252, 0.002, 0.000
29, 3736, 264, 0.002, 0.000
30, 3977, 284, 0.002, 0.000
31, 4243, 295, 0.002, 0.000
32, 4523, 314, 0.003, 0.001
33, 4831, 322, 0.003, 0.000
34, 5109, 356, 0.003, 0.003
35, 5416, 361, 0.003, 0.001
36, 5729, 375, 0.003, 0.001
37, 6084, 380, 0.003, 0.001
38, 6397, 376, 0.003, 0.001
39, 6745, 434, 0.004, 0.001
40, 7062, 430, 0.004, 0.003
41, 7429, 439, 0.005, 0.002
42, 7818, 456, 0.004, 0.001
43, 8196, 481, 0.004, 0.001
44, 8612, 513, 0.004, 0.001
45, 8990, 520, 0.006, 0.002
46, 9395, 528, 0.006, 0.002
47, 9815, 552, 0.005, 0.002
48, 10244, 584, 0.005, 0.003
49, 10658, 598, 0.005, 0.002
50, 11096, 590, 0.006, 0.002
51, 11561, 617, 0.005, 0.005
52, 12000, 638, 0.006, 0.002
53, 12464, 634, 0.006, 0.005
54, 12952, 678, 0.006, 0.002
55, 13444, 682, 0.006, 0.003
56, 13904, 703, 0.008, 0.003
57, 14464, 721, 0.009, 0.004
58, 14950, 768, 0.012, 0.008
59, 15453, 789, 0.009, 0.005
60, 16016, 813, 0.015, 0.007
61, 16567, 832, 0.009, 0.003
62, 17109, 830, 0.008, 0.007
63, 17648, 865, 0.009, 0.006
64, 18231, 852, 0.013, 0.016
65, 18747, 888, 0.010, 0.005
66, 19380, 890, 0.008, 0.002
67, 19991, 947, 0.009, 0.002
68, 20571, 964, 0.009, 0.002
69, 21136, 965, 0.010, 0.003
70, 21711, 977, 0.012, 0.006
71, 22388, 971, 0.012, 0.007
72, 23082, 1043, 0.010, 0.002
73, 23677, 1049, 0.011, 0.005
74, 24407, 1079, 0.013, 0.011
75, 24988, 1070, 0.013, 0.003
76, 25737, 1121, 0.012, 0.003
77, 26407, 1163, 0.011, 0.002
78, 26993, 1178, 0.011, 0.001
79, 27803, 1183, 0.013, 0.006
80, 28509, 1301, 0.017, 0.004
81, 29180, 1265, 0.012, 0.004
82, 29996, 1281, 0.023, 0.009
83, 30710, 1310, 0.026, 0.020
84, 31463, 1264, 0.025, 0.007
85, 32193, 1300, 0.023, 0.005
86, 32918, 1371, 0.023, 0.014
87, 33643, 1434, 0.013, 0.001
88, 34502, 1388, 0.014, 0.011
89, 35289, 1446, 0.019, 0.007
90, 36115, 1450, 0.025, 0.011
91, 36844, 1492, 0.022, 0.012
92, 37749, 1486, 0.016, 0.007
93, 38484, 1551, 0.015, 0.014
94, 39429, 1529, 0.015, 0.011
95, 40219, 1543, 0.023, 0.008
96, 40977, 1553, 0.022, 0.010
97, 41853, 1633, 0.017, 0.010
98, 42770, 1705, 0.027, 0.011
99, 43698, 1637, 0.032, 0.006
100, 44539, 1684, 0.021, 0.021
101, 45471, 1664, 0.035, 0.019
102, 46345, 1675, 0.023, 0.011
103, 47287, 1765, 0.032, 0.008
104, 48209, 1804, 0.026, 0.014
105, 49137, 1776, 0.022, 0.009
106, 50050, 1920, 0.019, 0.022
107, 51033, 1848, 0.028, 0.008
108, 52003, 1913, 0.027, 0.019
109, 52958, 1967, 0.035, 0.016
110, 53873, 1921, 0.040, 0.025
111, 54913, 1982, 0.026, 0.014
112, 55892, 1983, 0.023, 0.010
113, 56974, 1847, 0.022, 0.008
114, 57928, 2047, 0.039, 0.012
115, 59043, 2142, 0.022, 0.009
116, 59964, 2136, 0.023, 0.009
117, 60929, 2078, 0.026, 0.016
118, 62143, 2178, 0.028, 0.010
119, 63112, 2269, 0.028, 0.059
120, 64099, 2197, 0.026, 0.005
121, 65264, 2336, 0.026, 0.004
122, 66336, 2301, 0.029, 0.004
123, 67403, 2333, 0.029, 0.007
124, 68552, 2208, 0.034, 0.014
125, 69575, 2419, 0.031, 0.015
126, 70791, 2353, 0.028, 0.007
127, 71861, 2416, 0.052, 0.015
128, 73065, 2433, 0.058, 0.016
129, 74213, 2602, 0.054, 0.013
130, 75377, 2644, 0.045, 0.013
131, 76530, 2488, 0.041, 0.014
132, 77645, 2575, 0.050, 0.020
133, 78773, 2612, 0.057, 0.014
134, 80102, 2741, 0.033, 0.019
135, 81382, 2565, 0.037, 0.024
136, 82454, 2655, 0.038, 0.019
137, 83601, 2635, 0.031, 0.005
138, 84991, 2752, 0.044, 0.020
139, 86035, 2657, 0.064, 0.026
140, 87487, 2916, 0.040, 0.018
141, 88665, 2814, 0.050, 0.017
142, 89886, 2864, 0.052, 0.024
143, 91149, 2914, 0.057, 0.023
144, 92415, 2934, 0.064, 0.020
145, 93673, 2949, 0.038, 0.014
146, 95070, 2893, 0.046, 0.015
147, 96311, 3059, 0.044, 0.020
148, 97762, 3003, 0.055, 0.029
149, 99082, 2916, 0.053, 0.024
150, 100287, 3109, 0.047, 0.029
151, 101647, 3204, 0.042, 0.016
152, 103125, 3087, 0.043, 0.020
153, 104395, 3204, 0.072, 0.019
154, 105782, 3273, 0.060, 0.019
155, 107181, 3332, 0.044, 0.031
156, 108699, 3319, 0.053, 0.028
157, 110079, 3239, 0.053, 0.022
158, 111400, 3298, 0.060, 0.024
159, 112760, 3343, 0.049, 0.016
160, 113973, 3344, 0.056, 0.022
161, 115732, 3440, 0.058, 0.021
162, 116690, 3496, 0.042, 0.017
163, 118697, 3538, 0.048, 0.017
164, 120148, 3605, 0.053, 0.017
165, 121475, 3530, 0.074, 0.020
166, 122892, 3493, 0.064, 0.030
167, 124259, 3770, 0.046, 0.016
168, 126040, 3771, 0.060, 0.021
169, 127381, 3792, 0.047, 0.018
170, 129137, 3584, 0.055, 0.019
171, 130355, 3813, 0.045, 0.008
172, 131851, 3869, 0.053, 0.015
173, 133314, 3802, 0.056, 0.021
174, 134919, 3827, 0.081, 0.032
175, 136597, 3780, 0.079, 0.034
176, 138232, 3861, 0.055, 0.025
177, 139789, 4089, 0.057, 0.019
178, 141517, 4088, 0.059, 0.028
179, 142947, 4026, 0.068, 0.026
180, 144488, 4107, 0.086, 0.038
181, 146304, 4217, 0.069, 0.030
182, 147698, 4147, 0.072, 0.024
183, 149602, 4057, 0.056, 0.019
184, 151131, 4133, 0.065, 0.032
185, 152651, 4202, 0.055, 0.046
186, 154362, 4130, 0.051, 0.005
187, 155845, 4201, 0.059, 0.019
188, 157620, 4487, 0.080, 0.026
189, 159499, 4493, 0.086, 0.036
190, 161271, 4408, 0.076, 0.030
191, 162804, 4418, 0.087, 0.034
192, 164110, 4409, 0.086, 0.036
193, 166083, 4427, 0.082, 0.031
194, 167805, 4672, 0.089, 0.032
195, 169559, 4406, 0.074, 0.032
196, 171472, 4615, 0.064, 0.016
197, 173315, 4646, 0.095, 0.031
198, 174892, 4903, 0.105, 0.032
199, 176492, 4862, 0.077, 0.034
200, 178981, 4575, 0.069, 0.021
201, 180282, 4869, 0.092, 0.034
202, 182126, 4660, 0.078, 0.028
203, 184097, 4990, 0.104, 0.040
204, 185680, 5002, 0.096, 0.033
205, 187420, 5019, 0.102, 0.030
206, 189438, 5037, 0.099, 0.041
207, 190952, 5358, 0.080, 0.031
208, 193241, 5085, 0.068, 0.013
209, 194794, 5025, 0.101, 0.034
210, 197063, 5103, 0.073, 0.028
211, 198662, 5089, 0.070, 0.019
212, 200825, 5205, 0.102, 0.040
213, 202306, 5411, 0.080, 0.033
214, 204267, 5257, 0.094, 0.040
215, 206523, 5423, 0.089, 0.033
216, 208066, 5436, 0.081, 0.038
217, 209853, 5407, 0.076, 0.021
218, 212411, 5501, 0.121, 0.048
219, 213942, 5451, 0.116, 0.040
220, 216161, 5512, 0.105, 0.039
221, 218088, 5482, 0.128, 0.040
222, 219739, 5745, 0.099, 0.037
223, 221907, 5805, 0.080, 0.023
224, 223610, 5923, 0.085, 0.027
225, 226294, 5630, 0.108, 0.045
226, 228226, 5697, 0.097, 0.038
227, 229824, 5507, 0.079, 0.018
228, 232031, 6006, 0.097, 0.036
229, 234316, 5926, 0.124, 0.049
230, 235924, 5883, 0.095, 0.039
231, 238001, 5921, 0.103, 0.037
232, 240302, 5852, 0.110, 0.040
233, 242441, 6163, 0.082, 0.024
234, 244425, 6075, 0.089, 0.018
235, 246431, 6298, 0.103, 0.037
236, 248426, 6262, 0.104, 0.038
237, 250726, 6093, 0.085, 0.022
238, 252949, 6205, 0.127, 0.047
239, 255139, 6120, 0.109, 0.037
240, 257294, 5956, 0.112, 0.044
241, 259154, 6365, 0.107, 0.041
242, 261561, 6380, 0.096, 0.036
243, 263556, 6162, 0.150, 0.042
244, 265648, 6561, 0.143, 0.048
245, 267826, 6526, 0.097, 0.029
246, 269866, 6448, 0.135, 0.046
247, 271926, 6546, 0.125, 0.050
248, 274418, 6472, 0.143, 0.055
249, 276971, 6689, 0.104, 0.042
250, 279073, 6815, 0.102, 0.024
251, 281348, 6928, 0.147, 0.057
252, 283527, 6700, 0.123, 0.046
253, 286176, 6715, 0.100, 0.031
254, 287947, 6708, 0.114, 0.039
255, 290167, 6814, 0.149, 0.055
256, 292579, 6698, 0.128, 0.051
257, 294935, 6960, 0.133, 0.055
258, 297132, 6702, 0.173, 0.050
259, 299473, 7270, 0.132, 0.052
260, 301708, 7060, 0.147, 0.050
261, 303958, 7126, 0.136, 0.050
262, 306411, 7057, 0.165, 0.051
263, 308804, 7372, 0.129, 0.044
264, 311363, 7312, 0.106, 0.032
265, 313465, 7249, 0.127, 0.047
266, 316082, 7557, 0.129, 0.050
267, 318600, 7115, 0.152, 0.058
268, 320492, 7343, 0.160, 0.057
269, 323038, 7675, 0.164, 0.057
270, 325488, 7558, 0.159, 0.051
271, 328025, 7987, 0.152, 0.056
272, 330300, 7777, 0.142, 0.049
273, 332402, 7353, 0.167, 0.059
274, 335005, 7696, 0.169, 0.056
275, 337107, 7901, 0.136, 0.042
276, 339704, 7734, 0.155, 0.059
277, 342785, 7942, 0.155, 0.054
278, 344963, 7852, 0.158, 0.058
279, 347163, 7987, 0.140, 0.055
280, 350068, 7686, 0.186, 0.060
281, 352535, 7789, 0.148, 0.064
282, 355500, 7883, 0.155, 0.057
283, 357642, 8130, 0.149, 0.054
284, 360248, 8192, 0.143, 0.054
285, 363091, 8439, 0.177, 0.061
286, 365366, 8265, 0.126, 0.037
287, 367749, 8456, 0.155, 0.058
288, 370176, 8019, 0.137, 0.047
289, 372664, 8433, 0.125, 0.035
290, 375186, 8406, 0.151, 0.055
291, 378141, 8195, 0.149, 0.058
292, 380435, 8284, 0.176, 0.063
293, 383027, 8408, 0.150, 0.059
294, 385920, 8675, 0.155, 0.059
295, 388636, 8514, 0.128, 0.031
296, 390979, 8423, 0.164, 0.062
297, 393718, 8885, 0.151, 0.059
298, 396635, 8456, 0.175, 0.063
299, 398954, 8536, 0.162, 0.057
300, 401369, 8867, 0.155, 0.058
301, 404840, 9121, 0.147, 0.054
302, 407007, 8637, 0.174, 0.066
303, 410259, 8724, 0.139, 0.047
304, 412281, 8858, 0.188, 0.073
305, 414603, 8505, 0.187, 0.065
306, 418155, 8739, 0.160, 0.061
307, 421343, 9184, 0.164, 0.061
308, 423400, 9136, 0.177, 0.064
309, 426690, 8989, 0.192, 0.068
310, 428949, 8991, 0.154, 0.053
311, 431551, 9067, 0.179, 0.067
312, 435103, 9401, 0.175, 0.064
313, 436923, 9195, 0.213, 0.072
314, 440470, 9343, 0.193, 0.066
315, 443739, 9442, 0.223, 0.075
316, 445379, 9483, 0.221, 0.071
317, 448837, 9929, 0.210, 0.078
318, 451526, 9710, 0.168, 0.056
319, 454653, 9639, 0.172, 0.060
320, 457610, 9571, 0.183, 0.071
321, 460038, 9502, 0.194, 0.065
322, 463061, 9456, 0.191, 0.059
323, 465880, 9893, 0.190, 0.073
324, 468372, 9959, 0.217, 0.067
325, 471514, 9651, 0.188, 0.071
326, 473926, 10231, 0.158, 0.047
327, 477158, 10247, 0.183, 0.063
328, 480257, 10089, 0.203, 0.067
329, 483155, 10551, 0.227, 0.076
330, 486354, 10297, 0.213, 0.076
331, 489160, 10452, 0.223, 0.083
332, 491854, 10048, 0.263, 0.068
333, 495448, 10467, 0.223, 0.070
334, 498301, 10053, 0.176, 0.057
335, 501186, 10260, 0.226, 0.084
336, 504010, 10678, 0.187, 0.041
337, 507633, 10689, 0.192, 0.075
338, 510109, 10110, 0.260, 0.087
339, 513514, 10351, 0.248, 0.093
340, 515627, 10552, 0.245, 0.098
341, 519535, 10649, 0.208, 0.072
342, 522022, 10517, 0.269, 0.089
343, 525080, 10640, 0.189, 0.036
344, 527696, 10561, 0.197, 0.058
345, 531859, 10329, 0.231, 0.085
346, 534468, 11041, 0.199, 0.068
347, 537481, 11094, 0.204, 0.072
348, 540122, 10964, 0.240, 0.082
349, 544086, 10767, 0.180, 0.052
350, 546665, 11302, 0.230, 0.079
351, 550825, 11354, 0.190, 0.064
352, 553442, 11212, 0.195, 0.055
353, 556118, 11510, 0.206, 0.071
354, 558751, 11172, 0.245, 0.087
355, 562238, 11381, 0.222, 0.076
356, 565538, 11760, 0.166, 0.018
357, 568819, 11254, 0.194, 0.053
358, 572066, 11876, 0.216, 0.066
359, 574846, 11244, 0.272, 0.081
360, 578687, 11101, 0.231, 0.088
361, 581872, 11000, 0.198, 0.060
362, 585156, 11936, 0.189, 0.045
363, 587851, 11619, 0.193, 0.051
364, 591787, 11928, 0.178, 0.036
365, 594931, 11934, 0.198, 0.062
366, 598993, 12263, 0.262, 0.084
367, 601706, 12047, 0.217, 0.064
368, 604787, 11921, 0.210, 0.067
369, 607678, 12082, 0.219, 0.065
370, 610752, 12225, 0.200, 0.029
371, 614493, 12699, 0.192, 0.025
372, 618326, 12290, 0.198, 0.026
373, 622022, 11968, 0.229, 0.067
374, 624160, 11971, 0.211, 0.046
375, 627717, 11774, 0.199, 0.028
376, 631380, 12603, 0.199, 0.031
377, 634536, 12145, 0.215, 0.041
378, 638185, 12406, 0.203, 0.024
379, 641739, 12251, 0.200, 0.029
380, 645471, 12649, 0.213, 0.051
381, 648077, 12895, 0.280, 0.100
382, 651599, 12695, 0.266, 0.094
383, 655503, 12856, 0.232, 0.094
384, 658206, 12221, 0.288, 0.110
385, 661981, 12781, 0.262, 0.095
386, 665072, 12448, 0.279, 0.097
387, 669314, 12988, 0.279, 0.096
388, 671800, 13311, 0.270, 0.097
389, 675567, 12789, 0.205, 0.051
390, 679617, 13229, 0.233, 0.104
391, 682712, 12977, 0.236, 0.063
392, 686326, 13059, 0.278, 0.089
393, 690084, 12906, 0.279, 0.097
394, 694092, 13508, 0.262, 0.094
395, 697002, 13746, 0.302, 0.165
396, 700108, 13325, 0.223, 0.060
397, 704033, 13107, 0.214, 0.049
398, 707624, 13442, 0.229, 0.058
399, 711365, 13577, 0.228, 0.052
400, 714311, 13632, 0.250, 0.095
401, 717994, 13093, 0.249, 0.086
402, 722311, 13592, 0.240, 0.079
403, 724905, 13632, 0.249, 0.084
404, 728667, 13575, 0.265, 0.113
405, 732088, 13755, 0.287, 0.099
406, 736773, 13923, 0.245, 0.047
407, 739702, 13386, 0.249, 0.075
408, 743348, 14626, 0.312, 0.125
409, 747250, 14092, 0.305, 0.103
410, 751074, 13744, 0.276, 0.110
411, 753970, 14294, 0.289, 0.109
412, 757669, 13714, 0.261, 0.080
413, 761981, 13871, 0.264, 0.079
414, 765427, 14381, 0.274, 0.090
415, 768710, 14438, 0.234, 0.026
416, 772541, 14098, 0.232, 0.027
417, 775739, 14343, 0.232, 0.037
418, 780093, 14709, 0.241, 0.030
419, 784576, 14207, 0.257, 0.041
420, 788370, 15030, 0.238, 0.031
421, 791599, 14995, 0.239, 0.029
422, 795935, 13621, 0.268, 0.058
423, 799494, 14708, 0.262, 0.057
424, 802173, 14210, 0.263, 0.048
425, 806894, 14665, 0.257, 0.043
426, 809865, 14664, 0.293, 0.070
427, 814627, 14688, 0.263, 0.024
428, 818371, 14799, 0.237, 0.021
429, 822139, 14807, 0.245, 0.054
430, 825846, 15183, 0.252, 0.078
431, 829318, 15286, 0.264, 0.083
432, 833803, 14830, 0.271, 0.068
433, 836668, 15109, 0.272, 0.053
434, 841644, 15285, 0.249, 0.051
435, 845237, 15473, 0.279, 0.090
436, 849076, 15552, 0.319, 0.113
437, 853161, 14736, 0.291, 0.092
438, 856041, 15582, 0.268, 0.055
439, 860928, 15557, 0.314, 0.102
440, 864885, 15961, 0.352, 0.151
441, 868102, 15885, 0.343, 0.129
442, 872522, 15140, 0.338, 0.140
443, 877035, 16228, 0.284, 0.068
444, 879862, 15446, 0.294, 0.070
445, 883843, 15672, 0.311, 0.107
446, 888796, 15753, 0.379, 0.144
447, 892208, 16273, 0.321, 0.103
448, 897612, 16068, 0.310, 0.106
449, 900195, 15825, 0.341, 0.123
450, 903979, 16801, 0.345, 0.120
451, 908787, 15826, 0.564, 0.292
452, 912427, 16444, 0.791, 0.259
453, 916905, 16247, 0.914, 0.326
454, 919611, 16470, 0.966, 0.358
455, 924844, 16197, 0.943, 0.330
456, 929361, 16471, 0.825, 0.355
457, 932833, 16018, 0.759, 0.271
458, 936939, 15817, 0.733, 0.297
459, 940669, 16164, 0.850, 0.320
460, 944234, 16666, 0.759, 0.265
461, 949317, 16465, 0.719, 0.212
462, 953480, 16991, 0.911, 0.369
463, 957605, 17144, 0.955, 0.383
464, 962253, 17384, 0.867, 0.313
465, 965626, 16792, 0.746, 0.342
466, 970066, 17205, 0.902, 0.343
467, 973960, 17626, 0.895, 0.327
468, 978667, 17479, 0.915, 0.302
469, 983143, 17112, 0.925, 0.337
470, 986452, 17230, 1.120, 0.508
471, 990783, 17110, 0.743, 0.283
472, 993826, 17607, 0.698, 0.247
473, 998560, 17541, 0.689, 0.259
474, 1003726, 16747, 0.798, 0.386
475, 1006635, 17963, 0.479, 0.269
476, 1011563, 17494, 0.332, 0.097
477, 1016222, 17325, 0.730, 0.366
478, 1020656, 17355, 0.314, 0.130
479, 1024215, 17459, 0.296, 0.063
480, 1028876, 17552, 0.302, 0.073
481, 1033033, 17935, 0.289, 0.045
482, 1037190, 18357, 0.345, 0.124
483, 1041966, 18169, 0.312, 0.041
484, 1047513, 17950, 0.347, 0.092
485, 1049510, 18375, 0.348, 0.123
486, 1055032, 17769, 0.311, 0.064
487, 1059756, 18835, 0.308, 0.037
488, 1064314, 18608, 0.291, 0.017
489, 1067653, 17928, 0.304, 0.059
490, 1071695, 18224, 0.298, 0.036
491, 1077265, 18746, 0.296, 0.028
492, 1081330, 18156, 0.305, 0.052
493, 1086373, 19025, 0.305, 0.036
494, 1089633, 18245, 0.342, 0.099
495, 1094800, 19256, 0.339, 0.061
496, 1099203, 18558, 0.398, 0.162
497, 1103169, 18485, 0.341, 0.079
498, 1108017, 18591, 0.369, 0.065
499, 1111886, 18258, 0.373, 0.131
500, 1116053, 18706, 0.329, 0.076
