N, nbOp, tExec (ms)
10, 531, 0.002
11, 657, 0.001
12, 782, 0.001
13, 919, 0.001
14, 1084, 0.001
15, 1258, 0.001
16, 1421, 0.001
17, 1603, 0.002
18, 1836, 0.002
19, 2060, 0.002
20, 2285, 0.001
21, 2521, 0.002
22, 2771, 0.002
23, 3037, 0.002
24, 3316, 0.002
25, 3637, 0.002
26, 3943, 0.002
27, 4232, 0.002
28, 4557, 0.002
29, 4901, 0.002
30, 5284, 0.002
31, 5662, 0.003
32, 6055, 0.003
33, 6448, 0.003
34, 6796, 0.003
35, 7292, 0.003
36, 7673, 0.003
37, 8116, 0.004
38, 8598, 0.004
39, 9057, 0.004
40, 9555, 0.004
41, 10051, 0.004
42, 10567, 0.005
43, 11055, 0.005
44, 11637, 0.009
45, 12137, 0.005
46, 12675, 0.006
47, 13279, 0.007
48, 13853, 0.006
49, 14460, 0.007
50, 15089, 0.007
51, 15737, 0.007
52, 16414, 0.008
53, 16963, 0.008
54, 17677, 0.008
55, 18425, 0.009
56, 19129, 0.010
57, 19847, 0.008
58, 20480, 0.008
59, 21207, 0.009
60, 22043, 0.009
61, 22774, 0.009
62, 23419, 0.011
63, 24223, 0.010
64, 25056, 0.010
65, 25833, 0.011
66, 26650, 0.011
67, 27495, 0.013
68, 28364, 0.013
69, 29241, 0.011
70, 30056, 0.012
71, 30972, 0.012
72, 31819, 0.013
73, 32672, 0.012
74, 33739, 0.014
75, 34682, 0.024
76, 35613, 0.025
77, 36696, 0.028
78, 37573, 0.017
79, 38531, 0.014
80, 39521, 0.015
81, 40517, 0.014
82, 41405, 0.014
83, 42589, 0.015
84, 43763, 0.015
85, 44862, 0.017
86, 45936, 0.020
87, 46975, 0.028
88, 48131, 0.027
89, 49235, 0.030
90, 50337, 0.018
91, 51308, 0.017
92, 52532, 0.021
93, 53770, 0.025
94, 54910, 0.022
95, 56192, 0.020
96, 57252, 0.021
97, 58717, 0.020
98, 59964, 0.020
99, 61087, 0.021
100, 62529, 0.027
101, 63587, 0.035
102, 64914, 0.027
103, 66067, 0.025
104, 67328, 0.025
105, 69124, 0.023
106, 70219, 0.023
107, 71487, 0.024
108, 73087, 0.029
109, 74346, 0.024
110, 75633, 0.024
111, 76973, 0.025
112, 78437, 0.026
113, 79955, 0.026
114, 81454, 0.038
115, 82923, 0.033
116, 84266, 0.029
117, 85551, 0.027
118, 87320, 0.029
119, 88790, 0.028
120, 90069, 0.033
121, 92106, 0.034
122, 93676, 0.050
123, 95199, 0.033
124, 96703, 0.031
125, 98180, 0.033
126, 99747, 0.032
127, 101551, 0.043
128, 103026, 0.038
129, 104945, 0.039
130, 106254, 0.035
131, 107998, 0.035
132, 109384, 0.035
133, 111303, 0.038
134, 113050, 0.042
135, 114533, 0.038
136, 116430, 0.038
137, 118616, 0.055
138, 119830, 0.038
139, 121648, 0.046
140, 123478, 0.043
141, 124999, 0.052
142, 127259, 0.045
143, 128947, 0.043
144, 130796, 0.041
145, 132699, 0.042
146, 134402, 0.042
147, 136612, 0.043
148, 138231, 0.046
149, 140343, 0.058
150, 141801, 0.047
151, 144165, 0.051
152, 145963, 0.047
153, 148012, 0.050
154, 149625, 0.054
155, 151404, 0.067
156, 153889, 0.058
157, 156068, 0.054
158, 158402, 0.049
159, 159910, 0.063
160, 161721, 0.052
161, 164196, 0.055
162, 166136, 0.056
163, 167821, 0.057
164, 170615, 0.075
165, 172227, 0.059
166, 174437, 0.062
167, 176618, 0.056
168, 178723, 0.063
169, 181220, 0.066
170, 183270, 0.056
171, 185160, 0.064
172, 187287, 0.066
173, 189660, 0.063
174, 192315, 0.059
175, 194010, 0.061
176, 196147, 0.062
177, 199005, 0.078
178, 200934, 0.078
179, 203325, 0.072
180, 205849, 0.070
181, 208569, 0.070
182, 210491, 0.068
183, 212642, 0.064
184, 215282, 0.083
185, 217533, 0.072
186, 219584, 0.076
187, 222637, 0.087
188, 225089, 0.084
189, 226824, 0.077
190, 229911, 0.069
191, 232274, 0.076
192, 234581, 0.071
193, 237161, 0.070
194, 239211, 0.073
195, 241707, 0.100
196, 244197, 0.074
197, 247741, 0.090
198, 249822, 0.087
199, 252896, 0.087
200, 254565, 0.095
201, 257805, 0.101
202, 260035, 0.093
203, 262813, 0.099
204, 265295, 0.084
205, 268150, 0.080
206, 270109, 0.090
207, 273619, 0.096
208, 276050, 0.095
209, 278730, 0.086
210, 281836, 0.091
211, 283977, 0.084
212, 286598, 0.083
213, 289386, 0.084
214, 292103, 0.102
215, 295428, 0.087
216, 297847, 0.088
217, 300491, 0.089
218, 302642, 0.095
219, 306408, 0.109
220, 309085, 0.112
221, 312439, 0.111
222, 314772, 0.103
223, 316793, 0.092
224, 320784, 0.095
225, 323407, 0.093
226, 326560, 0.122
227, 329313, 0.109
228, 332467, 0.123
229, 334909, 0.128
230, 338354, 0.109
231, 341011, 0.129
232, 344143, 0.174
233, 346647, 0.153
234, 350755, 0.117
235, 353059, 0.107
236, 356383, 0.104
237, 359478, 0.107
238, 362428, 0.120
239, 365104, 0.109
240, 368656, 0.108
241, 371776, 0.145
242, 375547, 0.121
243, 377728, 0.120
244, 380702, 0.115
245, 384335, 0.150
246, 386854, 0.120
247, 390169, 0.124
248, 394469, 0.120
249, 396827, 0.125
250, 400160, 0.231
251, 403501, 0.269
252, 407183, 0.296
253, 409692, 0.326
254, 413762, 0.284
255, 416889, 0.385
256, 419907, 0.324
257, 423094, 0.273
258, 426637, 0.260
259, 430339, 0.310
260, 432929, 0.295
261, 437162, 0.342
262, 440338, 0.338
263, 443500, 0.297
264, 447753, 0.129
265, 450697, 0.126
266, 453323, 0.136
267, 457018, 0.136
268, 460516, 0.137
269, 463802, 0.151
270, 467865, 0.134
271, 471163, 0.139
272, 475423, 0.142
273, 477796, 0.135
274, 482240, 0.145
275, 486227, 0.136
276, 489567, 0.135
277, 492427, 0.145
278, 495153, 0.140
279, 500021, 0.141
280, 503414, 0.140
281, 506279, 0.179
282, 509988, 0.155
283, 514123, 0.162
284, 518269, 0.177
285, 522313, 0.170
286, 526309, 0.181
287, 529179, 0.170
288, 533825, 0.159
289, 536451, 0.178
290, 540202, 0.149
291, 543267, 0.170
292, 547709, 0.174
293, 551533, 0.153
294, 555990, 0.166
295, 559006, 0.182
296, 562690, 0.159
297, 566026, 0.158
298, 570441, 0.162
299, 574441, 0.179
300, 579545, 0.176
301, 581821, 0.177
302, 587184, 0.184
303, 590605, 0.196
304, 594264, 0.231
305, 599044, 0.281
306, 601929, 0.236
307, 606116, 0.222
308, 610188, 0.186
309, 615223, 0.206
310, 619725, 0.197
311, 622117, 0.209
312, 626301, 0.231
313, 630147, 0.188
314, 633970, 0.231
315, 638272, 0.246
316, 642831, 0.199
317, 646592, 0.225
318, 650991, 0.230
319, 655446, 0.228
320, 660120, 0.222
321, 662487, 0.214
322, 668994, 0.208
323, 672468, 0.297
324, 676340, 0.205
325, 679973, 0.259
326, 685366, 0.263
327, 688943, 0.233
328, 693943, 0.251
329, 697178, 0.224
330, 702372, 0.240
331, 706984, 0.258
332, 709976, 0.203
333, 714467, 0.222
334, 718385, 0.228
335, 723525, 0.273
336, 729169, 0.234
337, 731951, 0.217
338, 736518, 0.255
339, 739475, 0.266
340, 745905, 0.271
341, 749645, 0.250
342, 753370, 0.270
343, 757487, 0.254
344, 763646, 0.252
345, 768158, 0.308
346, 772624, 0.265
347, 776844, 0.271
348, 780856, 0.280
349, 785042, 0.269
350, 790782, 0.234
351, 795296, 0.242
352, 799431, 0.255
353, 804607, 0.258
354, 809208, 0.263
355, 813263, 0.245
356, 817644, 0.257
357, 822620, 0.260
358, 826667, 0.276
359, 831936, 0.272
360, 836434, 0.245
361, 839999, 0.253
362, 846827, 0.280
363, 851711, 0.268
364, 855496, 0.271
365, 860478, 0.244
366, 866615, 0.247
367, 870318, 0.271
368, 875180, 0.272
369, 878869, 0.273
370, 884330, 0.272
371, 888813, 0.256
372, 894993, 0.269
373, 899056, 0.255
374, 902773, 0.267
375, 907500, 0.265
376, 914059, 0.255
377, 919275, 0.256
378, 922523, 0.265
379, 927442, 0.272
380, 933852, 0.259
381, 938107, 0.256
382, 941603, 0.282
383, 947840, 0.307
384, 952771, 0.275
385, 957592, 0.288
386, 964891, 0.274
387, 967941, 0.273
388, 973211, 0.296
389, 977470, 0.276
390, 982628, 0.286
391, 988865, 0.285
392, 994245, 0.285
393, 998982, 0.306
394, 1004335, 0.306
395, 1008637, 0.286
396, 1013700, 0.287
397, 1017432, 0.299
398, 1025341, 0.279
399, 1028077, 0.329
400, 1033976, 0.299
401, 1040543, 0.363
402, 1046800, 0.284
403, 1051657, 0.302
404, 1054789, 0.287
405, 1062228, 0.297
406, 1065643, 0.323
407, 1072273, 0.312
408, 1077720, 0.322
409, 1081389, 0.325
410, 1087195, 0.323
411, 1092699, 0.312
412, 1100376, 0.304
413, 1104515, 0.340
414, 1109022, 0.302
415, 1113836, 0.325
416, 1120133, 0.323
417, 1126345, 0.322
418, 1130215, 0.331
419, 1135182, 0.325
420, 1142308, 0.310
421, 1148074, 0.320
422, 1153910, 0.349
423, 1158051, 0.427
424, 1164148, 0.433
425, 1168957, 0.387
426, 1174251, 0.373
427, 1179463, 0.400
428, 1186012, 0.359
429, 1192521, 0.493
430, 1197285, 1.002
431, 1203571, 1.078
432, 1208495, 0.754
433, 1214895, 0.542
434, 1221090, 0.495
435, 1225820, 0.512
436, 1231265, 0.351
437, 1238809, 0.388
438, 1241518, 0.365
439, 1248103, 0.370
440, 1255306, 0.369
441, 1259789, 0.358
442, 1265965, 0.371
443, 1271077, 0.428
444, 1276855, 0.405
445, 1283421, 0.402
446, 1288827, 0.473
447, 1293791, 0.403
448, 1300081, 0.431
449, 1303587, 0.354
450, 1313749, 0.372
451, 1319534, 0.412
452, 1324129, 0.365
453, 1330370, 0.359
454, 1334763, 0.420
455, 1341576, 0.415
456, 1347842, 0.466
457, 1354588, 0.407
458, 1359289, 0.436
459, 1364803, 0.423
460, 1372830, 0.449
461, 1378694, 0.500
462, 1385035, 0.494
463, 1388065, 0.476
464, 1398495, 0.471
465, 1402852, 0.427
466, 1409397, 0.424
467, 1414349, 0.439
468, 1421581, 0.420
469, 1428153, 0.415
470, 1433548, 0.431
471, 1438220, 0.415
472, 1447076, 0.462
473, 1453271, 0.464
474, 1456844, 0.429
475, 1462958, 0.419
476, 1472454, 0.472
477, 1477807, 0.455
478, 1483201, 0.449
479, 1488096, 0.427
480, 1495824, 0.474
481, 1500225, 0.431
482, 1507943, 0.400
483, 1512709, 0.415
484, 1520779, 0.434
485, 1525789, 0.432
486, 1534364, 0.418
487, 1539649, 0.428
488, 1543787, 0.473
489, 1551927, 0.463
490, 1557667, 0.498
491, 1564062, 0.437
492, 1570480, 0.437
493, 1577684, 0.472
494, 1584604, 0.474
495, 1592769, 0.453
496, 1597247, 0.456
497, 1604128, 0.438
498, 1611764, 0.557
499, 1618609, 0.589
